Temperature Entropy
1 4.003472876795659e-55 4.003472876795659e-55 0.1050464735588981 0.1050464735588981
2 4.43813953190965e-30 8.8762790638193e-30 0.1050464735588981 0.1050464735588981
3 9.16245243154938e-22 2.748735729464815e-21 0.1050464735588981 0.1050464735588981
4 1.3351069286199177e-17 5.3404277144796706e-17 0.10504647355889815 0.1050464735588981
5 4.1080416490474505e-15 2.054020824523725e-14 0.10504647355891782 0.10504647355889726
6 1.858786317430166e-13 1.1152717904580996e-12 0.10504647355996015 0.1050464735588449
7 2.811376160715145e-12 1.9679633125006014e-11 0.10504647357749587 0.10504647355781624
8 2.144328195114844e-11 1.715462556091875e-10 0.10504647371979434 0.10504647354824809
9 1.0368950573853581e-10 9.332055516468223e-10 0.10504647442768425 0.10504647349447871
10 3.647204895237936e-10 3.647204895237935e-09 0.10504647692959959 0.10504647328239472
11 1.0185653775935184e-09 1.1204219153528703e-08 0.10504648383962453 0.10504647263540538
12 2.394239668974241e-09 2.873087602769089e-08 0.10504649973678933 0.10504647100591331
13 4.932107110723342e-09 6.411739243940347e-08 0.10504653157795037 0.10504646746055793
14 9.164196927348307e-09 1.282987569828763e-07 0.10504658887642163 0.10504646057766465
15 1.5685998942018443e-08 2.3528998413027659e-07 0.10504668365928248 0.10504644836929834
16 2.5126920066711728e-08 4.0203072106738764e-07 0.10504683026342769 0.10504642823270662
17 3.8124254470617983e-08 6.481123260005057e-07 0.10504704504216769 0.10504639692984169
18 5.530296507729021e-08 9.954533713912237e-07 0.10504734604347678 0.10504635059010538
19 7.726165016210184e-08 1.467971353079935e-06 0.10504775270154579 0.10504628473019272
20 1.0456395039209634e-07 2.091279007841927e-06 0.10504828556416708 0.10504619428515924
21 1.3773418807162715e-07 2.8924179495041708e-06 0.10504896606380759 0.1050460736458581
22 1.7725598737470637e-07 3.899631722243541e-06 0.10504981633087038 0.10504591669914813
23 2.2357279837708713e-07 5.142174362673004e-06 0.1050508590428129 0.10504571686845024
24 2.77089499181955e-07 6.6501479803669195e-06 0.10505211730116312 0.10504546715318276
25 3.3817449921694333e-07 8.454362480423584e-06 0.10505361452878566 0.10504516016630525
26 4.071619755476949e-07 1.0586211364240068e-05 0.10505537438103367 0.10504478816966945
27 4.843540317774355e-07 1.3077558857990758e-05 0.1050574206660181 0.10504434310716008
28 5.700226786113502e-07 1.5960635001117806e-05 0.10505977727076239 0.10504381663576125
29 6.644116051346585e-07 1.9267936548905096e-05 0.1050624680912949 0.10504320015474598
30 7.677377502649276e-07 2.303213250794783e-05 0.1050655169657046 0.10504248483319663
31 8.801927037521996e-07 2.728597381631819e-05 0.10506894760985822 0.10504166163604188
32 1.001943972807248e-06 3.2062207129831935e-05 0.1050727835558926 0.10504072134876276
33 1.1331361493546008e-06 3.7393492928701816e-05 0.10507704809381345 0.10503965460088477
34 1.2738920077988875e-06 4.3312328265162185e-05 0.10508176421660455 0.10503845188833939
35 1.4243135565182214e-06 4.985097447813774e-05 0.10508695456923117 0.10503710359475305
36 1.5844830595457926e-06 5.704139014364854e-05 0.10509264140184367 0.10503560001170004
37 1.7544640388830595e-06 6.491516943867321e-05 0.10509884652738326 0.10503393135794457
38 1.93430226296923e-06 7.350348599283074e-05 0.10510559128368045 0.10503208779768762
39 2.124026723097485e-06 8.283704220080191e-05 0.10511289650003176 0.10503005945783096
40 2.3236505969437347e-06 9.294602387774939e-05 0.10512078246814945 0.1050278364442717
41 2.533172196703247e-06 0.00010386006006483315 0.10512926891730512 0.10502540885724027
42 2.7525758984294624e-06 0.00011560818773403744 0.1051383749934336 0.10502276680569957
43 2.9818330488541167e-06 0.00012821882110072703 0.1051481192419263 0.10501990042082558
44 3.220902846072368e-06 0.00014171972522718416 0.10515851959382132 0.10501679986859411
45 3.4697331908605185e-06 0.00015613799358872335 0.10516959335508994 0.1050134553615012
46 3.7282615059443638e-06 0.00017150002927344074 0.10518135719872142 0.10500985716944798
47 3.996415521165842e-06 0.00018783152949479462 0.10519382715931808 0.10500599562982327
48 4.274114023141253e-06 0.00020515747311078015 0.10520701862992944 0.10500186115681866
49 4.561267568621394e-06 0.00022350211086244828 0.10522094636087441 0.10499744425001195
50 4.857779161324259e-06 0.00024288895806621298 0.10523562446032182 0.10499273550225559
51 5.163544892498001e-06 0.00026334078951739806 0.10525106639642384 0.10498772560690643
52 5.478454545878786e-06 0.0002848796363856969 0.10526728500081853 0.10498240536443282
53 5.802392168034437e-06 0.0003075267849058252 0.10528429247333985 0.10497676568843403
54 6.1352366053341035e-06 0.00033130277668804163 0.10530210038779429 0.10497079761110624
55 6.476862008963571e-06 0.0003562274104929964 0.10532071969868072 0.10496449228818773
56 6.827138309523636e-06 0.00038231974533332354 0.10534016074874743 0.10495784100341408
57 7.1859316628138555e-06 0.0004095981047803898 0.10536043327729422 0.10495083517251386
58 7.55310486842531e-06 0.00043808008236866807 0.10538154642914015 0.10494346634677146
59 7.928517762752171e-06 0.000467782548002378 0.10540350876418766 0.10493572621618527
60 8.312027587990478e-06 0.000498721655279429 0.10542632826752349 0.10492760661224404
61 8.703489338631128e-06 0.0005309128496564988 0.10545001236000268 0.10491909951034617
62 9.10275608687765e-06 0.0005643708773864141 0.1054745679092694 0.10491019703188297
63 9.50967928833439e-06 0.0005991097951650666 0.10550000124117166 0.1049008914460066
64 9.924109069220078e-06 0.000635142980430085 0.10552631815153152 0.10489117517110141
65 1.0345894496269479e-05 0.0006724831422575162 0.10555352391823467 0.10488104077597717
66 1.0774883830394905e-05 0.0007111423328060636 0.1055816233136063 0.10487048098080025
67 1.1210924765090752e-05 0.0007511319592610803 0.10561062061704016 0.10485948865777907
68 1.1653864650480516e-05 0.000792462796232675 0.10564051962785102 0.10484805683161837
69 1.2103550703827147e-05 0.0008351449985640731 0.10567132367832024 0.10483617867975618
70 1.2559830207255293e-05 0.0008791881145078702 0.10570303564690468 0.10482384753239682
71 1.302255069336745e-05 0.0009246010992290891 0.10573565797158127 0.10481105687235219
72 1.3491560119376965e-05 0.0009713923285951416 0.10576919266329846 0.10479780033470334
73 1.3966707030326507e-05 0.001019569613213835 0.1058036413195072 0.10478407170629336
74 1.4447840711914123e-05 0.001069140212681645 0.10583900513774393 0.1047698649250623
75 1.4934811333406435e-05 0.0011201108500054828 0.10587528492923969 0.1047551740792342
76 1.542747008108274e-05 0.001172487726162288 0.1059124811325284 0.10473999340636611
77 1.592566928262153e-05 0.001226276534761858 0.10595059382702993 0.10472431729226807
78 1.642926252281404e-05 0.001281482476779495 0.10598962274658265 0.10470814026980314
79 1.693810475096569e-05 0.0013381102753262895 0.10602956729290233 0.10469145701757607
80 1.745205238032627e-05 0.0013961641904261018 0.1060704265489442 0.10467426235851812
81 1.797096337987268e-05 0.0014556480337696873 0.1061121992921466 0.1046565512583769
82 1.8494697358753042e-05 0.0015165651834177496 0.10615488400753544 0.1046383188241177
83 1.9023115643689212e-05 0.0015789185984262045 0.10619847890067016 0.10461956030224392
84 1.955608134962328e-05 0.0016427108333683554 0.10624298191041225 0.1046002710770439
85 2.0093459443885046e-05 0.001707944052730229 0.10628839072150002 0.10458044666876981
86 2.063511680414933e-05 0.0017746200451568424 0.10633470277691277 0.10456008273175596
87 2.1180922270444727e-05 0.0018427402375286912 0.10638191529001052 0.10453917505248181
88 2.1730746691469544e-05 0.0019123057088493202 0.10643002525643558 0.10451771954758625
89 2.2284462965464663e-05 0.0019833172039263555 0.1064790294657641 0.10449571226183774
90 2.2841946075887855e-05 0.002055775146829907 0.1065289245128966 0.10447314936606669
91 2.340307312212914e-05 0.0021296796541137512 0.10657970680917825 0.10445002715506448
92 2.3967723345501745e-05 0.0022050305477861604 0.10663137259324026 0.10442634204545412
93 2.4535778150738518e-05 0.002281827368018682 0.10668391794155578 0.10440209057353712
94 2.5107121123219102e-05 0.002360069385582595 0.10673733877870385 0.10437726939312127
95 2.5681638042147877e-05 0.0024397556140040477 0.10679163088733705 0.10435187527333299
96 2.62592168898982e-05 0.002520884821430228 0.10684678991784881 0.10432590509641855
97 2.6839747857733604e-05 0.002603455542200159 0.10690281139773791 0.10429935585553776
98 2.7423123348110685e-05 0.002687466088114847 0.10695969074066834 0.1042722246525535
99 2.8009237973764283e-05 0.0027729145594026644 0.10701742325522362 0.10424450869582096
100 2.8597988553769328e-05 0.0028597988553769327 0.10707600415335587 0.10421620529797897
101 2.9189274106768575e-05 0.0029481166847836263 0.10713542855853037 0.10418731187374677
102 2.978299584154968e-05 0.003037865575838067 0.1071956915135671 0.104157825937729
103 3.0379057145149634e-05 0.003129042885950412 0.10725678798818183 0.10412774510223143
104 3.097736356865824e-05 0.003221645811140457 0.10731871288622975 0.1040970670750893
105 3.157782281088687e-05 0.0033156713951431206 0.10738146105265466 0.10406578965751154
106 3.218034470006267e-05 0.003411116538206644 0.10744502728014863 0.10403391074194197
107 3.2784841173702236e-05 0.0035079780055861398 0.10750940631552593 0.10400142830993978
108 3.339122625681283e-05 0.0036062524357357868 0.10757459286581679 0.10396834043008102
109 3.399941603856355e-05 0.003705936348203427 0.10764058160408603 0.10393464525588261
110 3.460932864756221e-05 0.003807026151231843 0.10770736717498236 0.10390034102375051
111 3.522088422586837e-05 0.003909518149071389 0.10777494420002451 0.10386542605095311
112 3.583400490186686e-05 0.004013408549009088 0.10784330728263036 0.1038298987336213
113 3.644861476211993e-05 0.004118693468119552 0.10791245101289562 0.10379375754477607
114 3.7064639822311184e-05 0.004225368939743475 0.10798236997212832 0.10375700103238487
115 3.768200799738813e-05 0.004333430919699635 0.10805305873714689 0.10371962781744726
116 3.830064907100488e-05 0.004442875292236566 0.10812451188434753 0.10368163659211098
117 3.892049466436147e-05 0.004553697875730291 0.10819672399354902 0.10364302611781874
118 3.9541478204530126e-05 0.004665894428134555 0.10826968965162091 0.10360379522348637
119 4.01635348923548e-05 0.004779460652190222 0.10834340345590336 0.10356394280371313
120 4.078660167000427e-05 0.004894392200400512 0.10841786001742454 0.10352346781702405
121 4.1410617188254725e-05 0.0050106846797788205 0.1084930539639237 0.10348236928414488
122 4.203552177357331e-05 0.005128333656375943 0.10856897994268602 0.10344064628631008
123 4.2661257395068953e-05 0.005247334659593482 0.10864563262319703 0.10339829796360354
124 4.328776763137282e-05 0.005367683186290232 0.10872300669962276 0.10335532351333253
125 4.391499763750653e-05 0.0054893747046883155 0.108801096893123 0.1033117221884347
126 4.4542894111792113e-05 0.005612404658085807 0.10887989795400405 0.10326749329591825
127 4.517140526285383e-05 0.005736768468382436 0.1089594046637177 0.10322263619533525
128 4.580048077675816e-05 0.005862461539425045 0.10903961183671268 0.10317715029728763
129 4.643007178433505e-05 0.00598947926017922 0.10912051432214544 0.1031310350619662
130 4.7060130828719596e-05 0.006117817007733547 0.10920210700545559 0.10308428999772204
131 4.7690611833150474e-05 0.006247470150142712 0.1092843848098131 0.10303691465967038
132 4.83214700690585e-05 0.0063784340491157224 0.10936734269744225 0.10298890864832654
133 4.895266212447496e-05 0.006510704062555169 0.10945097567082854 0.10294027160827339
134 4.958414587278775e-05 0.0066442755469535595 0.10953527877381412 0.10289100322686057
135 5.021588044186977e-05 0.0067791438596524175 0.10962024709258691 0.10284110323293448
136 5.08478261836018e-05 0.006915304360969845 0.10970587575656904 0.1027905713955992
137 5.1479944643810074e-05 0.00705275241620198 0.10979215993920936 0.1027394075230074
138 5.2112198532636076e-05 0.007191483397503778 0.10987909485868509 0.1026876114611813
139 5.274455169535426e-05 0.007331492685654241 0.10996667577851736 0.10263518309286311
140 5.3376969083651154e-05 0.007472775671711162 0.11005489800810524 0.10258212233639408
141 5.4009416727378155e-05 0.00761532775856032 0.11014375690318268 0.10252842914462233
142 5.464186170678742e-05 0.0077591443623638125 0.1102332478662026 0.10247410350383879
143 5.527427212525985e-05 0.00790422091391216 0.1103233663466523 0.10241914543274015
144 5.590661708253181e-05 0.008050552859884581 0.11041410784130402 0.10236355498141946
145 5.6538866648426214e-05 0.008198135664021802 0.1105054678944045 0.1023073322303827
146 5.717099183709224e-05 0.008346964808215469 0.11059744209780732 0.10225047728959188
147 5.780296458175637e-05 0.008497035793518185 0.1106900260910513 0.10219299029753313
148 5.8434757709986995e-05 0.008648344141078075 0.11078321556138825 0.10213487142031018
149 5.9066344919473205e-05 0.008800885393001508 0.11087700624376362 0.10207612085076212
150 5.9697700754317394e-05 0.00895465511314761 0.11097139392075286 0.10201673880760526
151 6.0328800581840854e-05 0.009109648887857971 0.11106637442245614 0.10195672553459816
152 6.095962056990051e-05 0.00926586232662488 0.1111619436263549 0.10189608129973005
153 6.159013766471379e-05 0.00942329106270121 0.1112580974571324 0.1018348063944312
154 6.222032956918868e-05 0.009581930753655061 0.11135483188646063 0.10177290113280556
155 6.285017472175477e-05 0.009741777081871992 0.11145214293275671 0.10171036585088473
156 6.34796522756908e-05 0.009902825755007762 0.11155002666091042 0.10164720090590264
157 6.410874207894346e-05 0.010065072506394122 0.1116484791819852 0.10158340667559108
158 6.473742465443244e-05 0.010228513095400325 0.11174749665289498 0.10151898355749464
159 6.536568118083514e-05 0.010393143307752787 0.11184707527605843 0.10145393196830564
160 6.599349347384496e-05 0.010558958955815193 0.11194721129903282 0.10138825234321763
161 6.662084396789684e-05 0.010725955878831394 0.11204790101412901 0.1013219451352976
162 6.724771569835245e-05 0.010894129943133098 0.1121491407580093 0.1012550108148762
163 6.787409228413832e-05 0.011063477042314546 0.11225092691126995 0.10118744986895542
164 6.849995791082942e-05 0.011233993097376023 0.11235325589800975 0.10111926280063371
165 6.912529731417043e-05 0.011405674056838122 0.11245612418538561 0.10105045012854748
166 6.975009576402684e-05 0.011578515896828456 0.11255952828315743 0.10098101238632898
167 7.037433904875831e-05 0.01175251462114264 0.11266346474322271 0.10091095012208005
168 7.099801346000594e-05 0.011927666261280997 0.11276793015914237 0.10084026389786137
169 7.162110577788547e-05 0.012103966876462646 0.11287292116565908 0.10076895428919645
170 7.224360325657857e-05 0.012281412553618355 0.1129784344382088 0.10069702188459045
171 7.286549361031315e-05 0.01245999940736355 0.11308446669242679 0.10062446728506323
172 7.348676499972564e-05 0.01263972357995281 0.11319101468364888 0.1005512911036961
173 7.410740601859613e-05 0.012820581241217129 0.11329807520640908 0.10047749396519198
174 7.47274056809484e-05 0.013002568588485025 0.11340564509393394 0.10040307650544893
175 7.534675340850708e-05 0.01318568184648874 0.1135137212176348 0.10032803937114607
176 7.596543901850301e-05 0.013369917267256528 0.11362230048659855 0.100252383219342
177 7.658345271181942e-05 0.013555271129992035 0.11373137984707743 0.1001761087170854
178 7.72007850614707e-05 0.013741739740941785 0.11384095628197873 0.10009921654103697
179 7.781742700140557e-05 0.013929319433251597 0.11395102681035452 0.1000217073771029
180 7.84333698156271e-05 0.01411800656681288 0.11406158848689271 0.09994358192007981
181 7.904860512762163e-05 0.014307797528099514 0.11417263840140893 0.09986484087330941
182 7.966312489008895e-05 0.014498688729996193 0.11428417367834082 0.09978548494834463
183 8.027692137496636e-05 0.014690676611618842 0.11439619147624404 0.09970551486462519
184 8.088998716373859e-05 0.0148837576381279 0.1145086889872913 0.09962493134916338
185 8.150231513802698e-05 0.015077928300534992 0.11462166343677412 0.09954373513623913
186 8.21138984704503e-05 0.015273185115503757 0.11473511208260818 0.09946192696710443
187 8.27247306157498e-05 0.015469524625145215 0.11484903221484218 0.09937950758969698
188 8.333480530217222e-05 0.015666943396808374 0.11496342115517054 0.09929647775836217
189 8.394411652310317e-05 0.015865438022866503 0.11507827625645047 0.09921283823358398
190 8.455265852894506e-05 0.016065005120499562 0.11519359490222332 0.09912858978172377
191 8.51604258192315e-05 0.016265641331473218 0.1153093745062405 0.09904373317476729
192 8.576741313497376e-05 0.016467343321914962 0.11542561251199437 0.0989582691900794
193 8.63736154512311e-05 0.016670107782087603 0.11554230639225398 0.09887219861016636
194 8.697902796989976e-05 0.016873931426160556 0.1156594536486058 0.09878552222244526
195 8.758364611271437e-05 0.017078810991979308 0.11577705181100019 0.09869824081902087
196 8.818746551445572e-05 0.017284743240833324 0.11589509843730247 0.09861035519646914
197 8.879048201635943e-05 0.017491724957222805 0.11601359111285028 0.09852186615562747
198 8.939269165971935e-05 0.01769975294862443 0.11613252745001583 0.09843277450139144
199 8.99940906796808e-05 0.01790882404525648 0.11625190508777439 0.09834308104251792
200 9.059467549921759e-05 0.018118935099843518 0.11637172169127773 0.09825278659143423
201 9.11944427232882e-05 0.01833008298738093 0.11649197495143418 0.09816189196405326
202 9.179338913316553e-05 0.018542264604899435 0.11661266258449372 0.09807039797959428
203 9.239151168093547e-05 0.0187554768712299 0.11673378233163936 0.09797830546040946
204 9.298880748415936e-05 0.01896971672676851 0.1168553319585842 0.09788561523181571
205 9.358527382069555e-05 0.019184981133242587 0.11697730925517438 0.09779232812193177
206 9.418090812367543e-05 0.019401267073477148 0.11709971203499767 0.09769844496152051
207 9.477570797662958e-05 0.019618571551162325 0.11722253813499836 0.09760396658383604
208 9.536967110875922e-05 0.019836891590621915 0.11734578541509769 0.09750889382447575
209 9.596279539034965e-05 0.020056224236583077 0.11746945175781995 0.09741322752123689
210 9.655507882832015e-05 0.02027656655394723 0.11759353506792497 0.09731696851397773
211 9.714651956190756e-05 0.02049791562756249 0.11771803327204562 0.09722011764448314
212 9.773711585847878e-05 0.020720268561997504 0.11784294431833181 0.09712267575633429
213 9.832686610946909e-05 0.020943622481316915 0.11796826617609964 0.09702464369478271
214 9.891576882644146e-05 0.021167974528858473 0.11809399683548645 0.09692602230662797
215 9.950382263726477e-05 0.021393321867011927 0.11822013430711173 0.09682681244009979
216 0.00010009102628240605 0.021619661676999708 0.11834667662174292 0.09672701494474324
217 0.00010067737861133403 0.02184699115865948 0.1184736218299677 0.09662663067130822
218 0.00010126287857903067 0.022075307530228683 0.1186009680018708 0.0965256604716421
219 0.00010184752524260713 0.022304608028130963 0.11872871322671692 0.09642410519858596
220 0.00010243131775802136 0.022534889906764697 0.11885685561263873 0.09632196570587402
221 0.00010301425537689418 0.022766150438293616 0.11898539328633008 0.09621924284803646
222 0.00010359633744342095 0.02299838691243945 0.11911432439274479 0.09611593748030534
223 0.00010417756339137556 0.023231596636276743 0.11924364709480019 0.09601205045852344
224 0.00010475793274120483 0.023465776934029882 0.1193733595730861 0.09590758263905623
225 0.00010533744509720972 0.023700925146872182 0.11950346002557873 0.09580253487870655
226 0.00010591610014481119 0.02393703863272733 0.11963394666735948 0.09569690803463214
227 0.00010649389764789824 0.024174114766072903 0.1197648177303388 0.09559070296426593
